time,signal
0.0,-1.800951175216696e-21
2.0833333333333333e-05,0.13052619222005157
4.1666666666666665e-05,0.25881904510252074
6.25e-05,0.3826834323650898
8.333333333333333e-05,0.49999999999999994
0.00010416666666666667,0.6087614290087207
0.000125,0.7071067811865475
0.00014583333333333335,0.793353340291235
0.00016666666666666666,0.8660254037844386
0.0001875,0.9238795325112867
0.00020833333333333335,0.9659258262890683
0.00022916666666666666,0.9914448613738104
0.00025,1.0
0.0002708333333333333,0.9914448613738104
0.0002916666666666667,0.9659258262890683
0.0003125,0.9238795325112868
0.0003333333333333333,0.8660254037844388
0.0003541666666666667,0.7933533402912352
0.000375,0.7071067811865476
0.0003958333333333333,0.6087614290087209
0.0004166666666666667,0.49999999999999994
0.0004375,0.38268343236508984
0.0004583333333333333,0.258819045102521
0.00047916666666666664,0.13052619222005155
0.0005,1.2246467991473532e-16
0.0005208333333333333,-0.13052619222005177
0.0005416666666666666,-0.2588190451025208
0.0005625,-0.38268343236508967
0.0005833333333333334,-0.4999999999999998
0.0006041666666666667,-0.6087614290087207
0.000625,-0.7071067811865471
0.0006458333333333333,-0.7933533402912349
0.0006666666666666666,-0.8660254037844384
0.0006875,-0.9238795325112868
0.0007083333333333334,-0.9659258262890683
0.0007291666666666667,-0.9914448613738104
0.00075,-1.0
0.0007708333333333333,-0.9914448613738105
0.0007916666666666666,-0.9659258262890684
0.0008125,-0.923879532511287
0.0008333333333333334,-0.8660254037844386
0.0008541666666666667,-0.7933533402912357
0.000875,-0.7071067811865477
0.0008958333333333333,-0.6087614290087209
0.0009166666666666666,-0.5000000000000004
0.0009375,-0.38268343236508956
0.0009583333333333333,-0.2588190451025207
0.0009791666666666666,-0.13052619222005168
0.001,-2.4492935982947064e-16
0.0010208333333333332,0.13052619222005118
0.0010416666666666667,0.25881904510252113
0.0010625,0.3826834323650891
0.0010833333333333333,0.5
0.0011041666666666667,0.6087614290087205
0.001125,0.7071067811865474
0.0011458333333333333,0.7933533402912349
0.0011666666666666668,0.8660254037844384
0.0011875,0.9238795325112865
0.0012083333333333334,0.9659258262890683
0.0012291666666666666,0.9914448613738104
0.00125,1.0
0.0012708333333333332,0.9914448613738105
0.0012916666666666667,0.9659258262890684
0.0013125,0.9238795325112867
0.0013333333333333333,0.8660254037844392
0.0013541666666666667,0.7933533402912353
0.001375,0.7071067811865471
0.0013958333333333333,0.608761429008721
0.0014166666666666668,0.4999999999999998
0.0014375,0.3826834323650905
0.0014583333333333334,0.25881904510252085
0.0014791666666666666,0.1305261922200509
0.0015,3.6739403974420594e-16
0.0015208333333333332,-0.1305261922200502
0.0015416666666666667,-0.2588190451025201
0.0015625,-0.38268343236508984
0.0015833333333333333,-0.49999999999999917
0.0016041666666666667,-0.6087614290087204
0.001625,-0.7071067811865467
0.0016458333333333333,-0.7933533402912348
0.0016666666666666668,-0.8660254037844387
0.0016875,-0.9238795325112864
0.0017083333333333334,-0.9659258262890678
0.0017291666666666666,-0.9914448613738105
0.00175,-1.0
0.0017708333333333332,-0.9914448613738106
0.0017916666666666667,-0.9659258262890684
0.0018125,-0.9238795325112874
0.0018333333333333333,-0.8660254037844392
0.0018541666666666667,-0.7933533402912343
0.001875,-0.7071067811865472
0.0018958333333333334,-0.6087614290087211
0.0019166666666666666,-0.49999999999999983
0.0019375,-0.3826834323650923
0.001958333333333333,-0.25881904510252096
0.001979166666666667,-0.13052619222005282
0.002,-4.898587196589413e-16
0.0020208333333333332,0.13052619222005007
0.0020416666666666665,0.25881904510251996
0.0020625,0.38268343236509134
0.0020833333333333333,0.5000000000000007
0.0021041666666666665,0.6087614290087218
0.002125,0.7071067811865466
0.0021458333333333334,0.7933533402912337
0.0021666666666666666,0.8660254037844387
0.0021875,0.9238795325112871
0.0022083333333333334,0.9659258262890682
0.0022291666666666666,0.9914448613738105
0.00225,1.0
0.0022708333333333335,0.9914448613738104
0.0022916666666666667,0.9659258262890685
0.0023125,0.9238795325112875
0.0023333333333333335,0.8660254037844393
0.0023541666666666667,0.7933533402912365
0.002375,0.7071067811865486
0.002395833333333333,0.6087614290087199
0.002416666666666667,0.5
0.0024375,0.3826834323650891
0.002458333333333333,0.2588190451025211
0.002479166666666667,0.13052619222005468
0.0025,2.388680238973927e-15
0.0025208333333333333,-0.1305261922200517
0.0025416666666666665,-0.25881904510251985
0.0025625,-0.38268343236508795
0.0025833333333333333,-0.4999999999999989
0.0026041666666666665,-0.6087614290087202
0.002625,-0.7071067811865477
0.0026458333333333334,-0.7933533402912357
0.0026666666666666666,-0.8660254037844377
0.0026875,-0.9238795325112863
0.0027083333333333334,-0.9659258262890682
0.0027291666666666666,-0.9914448613738105
0.00275,-1.0
0.0027708333333333335,-0.9914448613738106
0.0027916666666666667,-0.9659258262890685
0.0028125,-0.9238795325112868
0.0028333333333333335,-0.8660254037844384
0.0028541666666666667,-0.7933533402912365
0.002875,-0.7071067811865487
0.002895833333333333,-0.6087614290087213
0.002916666666666667,-0.5000000000000001
0.0029375,-0.3826834323650925
0.002958333333333333,-0.25881904510251946
0.002979166666666667,-0.13052619222004952
0.003,-7.347880794884119e-16
0.0030208333333333333,0.1305261922200516
0.0030416666666666665,0.2588190451025181
0.0030625,0.38268343236508784
0.0030833333333333333,0.4999999999999988
0.0031041666666666665,0.6087614290087201
0.003125,0.7071067811865476
0.0031458333333333334,0.7933533402912336
0.0031666666666666666,0.8660254037844377
0.0031875,0.9238795325112876
0.0032083333333333334,0.9659258262890682
0.0032291666666666666,0.9914448613738099
0.00325,1.0
0.0032708333333333335,0.9914448613738106
0.0032916666666666667,0.9659258262890685
0.0033125,0.9238795325112868
0.0033333333333333335,0.8660254037844385
0.0033541666666666668,0.7933533402912345
0.003375,0.7071067811865488
0.003395833333333333,0.6087614290087242
0.003416666666666667,0.5000000000000033
0.0034375,0.38268343236509256
0.0034583333333333332,0.2588190451025196
0.003479166666666667,0.13052619222005318
0.0035,8.572527594031472e-16
0.0035208333333333333,-0.13052619222004794
0.0035416666666666665,-0.25881904510251796
0.0035625,-0.3826834323650878
0.0035833333333333333,-0.4999999999999987
0.0036041666666666665,-0.6087614290087172
0.003625,-0.707106781186545
0.0036458333333333334,-0.7933533402912335
0.0036666666666666666,-0.8660254037844376
0.0036875,-0.9238795325112876
0.0037083333333333334,-0.9659258262890691
0.0037291666666666667,-0.9914448613738104
0.00375,-1.0
0.0037708333333333335,-0.9914448613738102
0.0037916666666666667,-0.9659258262890686
0.0038125,-0.923879532511287
0.003833333333333333,-0.8660254037844385
0.0038541666666666668,-0.7933533402912388
0.003875,-0.7071067811865512
0.003895833333333333,-0.6087614290087215
0.003916666666666666,-0.5000000000000003
0.0039375,-0.38268343236508945
0.003958333333333334,-0.2588190451025231
0.0039791666666666664,-0.1305261922200533
0.004,-9.797174393178826e-16
0.004020833333333334,0.13052619222005135
0.0040416666666666665,0.2588190451025178
0.0040625,0.3826834323650876
0.004083333333333333,0.4999999999999986
0.0041041666666666666,0.60876142900872
0.004125,0.70710678118655
0.004145833333333333,0.7933533402912356
0.004166666666666667,0.8660254037844394
0.0041875,0.9238795325112875
0.004208333333333333,0.965925826289069
0.004229166666666667,0.9914448613738099
0.00425,1.0
0.004270833333333333,0.9914448613738107
0.004291666666666667,0.9659258262890695
0.0043125,0.9238795325112884
0.004333333333333333,0.8660254037844386
0.004354166666666667,0.7933533402912346
0.004375,0.7071067811865464
0.004395833333333333,0.6087614290087217
0.004416666666666667,0.5000000000000004
0.0044375,0.38268343236508956
0.004458333333333333,0.2588190451025198
0.004479166666666667,0.13052619222005343
0.0045,1.102182119232618e-15
0.004520833333333333,-0.1305261922200512
0.004541666666666667,-0.25881904510252113
0.0045625,-0.38268343236509406
0.004583333333333333,-0.4999999999999985
0.004604166666666667,-0.6087614290087199
0.004625,-0.7071067811865448
0.004645833333333333,-0.7933533402912334
0.004666666666666667,-0.8660254037844375
0.0046875,-0.9238795325112862
0.0047083333333333335,-0.9659258262890671
0.004729166666666666,-0.9914448613738099
0.00475,-1.0
0.0047708333333333335,-0.9914448613738107
0.004791666666666666,-0.9659258262890678
0.0048125,-0.9238795325112856
0.004833333333333334,-0.8660254037844386
0.004854166666666666,-0.7933533402912347
0.004875,-0.7071067811865465
0.004895833333333334,-0.6087614290087189
0.004916666666666666,-0.5000000000000006
0.0049375,-0.38268343236508967
0.004958333333333334,-0.2588190451025268
0.0049791666666666665,-0.13052619222005704
0.005,-4.777360477947854e-15
0.005020833333333334,0.1305261922200511
0.0050416666666666665,0.258819045102521
0.0050625,0.3826834323650874
0.005083333333333333,0.49999999999999845
0.005104166666666667,0.6087614290087198
0.005125,0.7071067811865448
0.005145833333333333,0.7933533402912354
0.005166666666666667,0.8660254037844374
0.0051875,0.9238795325112847
0.005208333333333333,0.965925826289068
0.005229166666666667,0.9914448613738108
0.00525,1.0
0.005270833333333333,0.9914448613738098
0.005291666666666667,0.9659258262890678
0.0053125,0.9238795325112871
0.005333333333333333,0.8660254037844405
0.005354166666666667,0.7933533402912392
0.005375,0.7071067811865491
0.005395833333333333,0.6087614290087247
0.005416666666666667,0.5000000000000007
0.0054375,0.38268343236509306
0.005458333333333333,0.25881904510252
0.005479166666666667,0.13052619222005368
0.0055,-2.2056021997384123e-15
0.005520833333333333,-0.13052619222005096
0.005541666666666667,-0.25881904510251746
0.0055625,-0.38268343236509056
0.005583333333333333,-0.49999999999999833
0.005604166666666667,-0.6087614290087225
0.005625,-0.7071067811865472
0.005645833333333333,-0.7933533402912332
0.005666666666666667,-0.8660254037844392
0.0056875,-0.9238795325112861
0.0057083333333333335,-0.9659258262890671
0.005729166666666666,-0.9914448613738104
0.00575,-1.0
0.0057708333333333335,-0.9914448613738103
0.005791666666666666,-0.9659258262890688
0.0058125,-0.9238795325112885
0.005833333333333334,-0.8660254037844388
0.005854166666666666,-0.793353340291237
0.005875,-0.7071067811865517
0.005895833333333334,-0.6087614290087219
0.005916666666666666,-0.49999999999999767
0.0059375,-0.38268343236508984
0.005958333333333334,-0.2588190451025167
0.0059791666666666665,-0.13052619222005027
0.006,-1.4695761589768238e-15
0.006020833333333334,0.13052619222005438
0.0060416666666666665,0.2588190451025208
0.0060625,0.3826834323650872
0.006083333333333333,0.49999999999999517
0.006104166666666667,0.608761429008714
0.006125,0.7071067811865446
0.006145833333333333,0.7933533402912352
0.006166666666666667,0.8660254037844373
0.0061875,0.9238795325112874
0.006208333333333333,0.965925826289068
0.006229166666666667,0.9914448613738099
0.00625,1.0
0.006270833333333333,0.9914448613738107
0.006291666666666667,0.9659258262890696
0.0063125,0.9238795325112872
0.006333333333333333,0.8660254037844406
0.006354166666666667,0.7933533402912349
0.006375,0.7071067811865442
0.006395833333333333,0.6087614290087191
0.006416666666666667,0.5000000000000008
0.0064375,0.3826834323650933
0.006458333333333333,0.2588190451025272
0.006479166666666667,0.13052619222005388
0.0065,5.14475451769206e-15
0.006520833333333333,-0.13052619222005074
0.006541666666666667,-0.2588190451025172
0.0065625,-0.38268343236509034
0.006583333333333333,-0.4999999999999981
0.006604166666666667,-0.6087614290087223
0.006625,-0.707106781186547
0.0066458333333333335,-0.793353340291233
0.006666666666666667,-0.866025403784439
0.0066875,-0.923879532511286
0.0067083333333333335,-0.9659258262890689
0.006729166666666666,-0.9914448613738104
0.00675,-1.0
0.0067708333333333336,-0.9914448613738103
0.006791666666666666,-0.9659258262890706
0.0068125,-0.9238795325112886
0.006833333333333334,-0.8660254037844424
0.006854166666666666,-0.7933533402912372
0.006875,-0.7071067811865519
0.006895833333333334,-0.6087614290087221
0.0069166666666666664,-0.49999999999999784
0.0069375,-0.3826834323650901
0.006958333333333334,-0.25881904510252385
0.0069791666666666665,-0.13052619222005754
0.007,-1.7145055188062944e-15
0.007020833333333333,0.1305261922200471
0.0070416666666666666,0.25881904510251363
0.0070625,0.38268343236508695
0.007083333333333333,0.49999999999999495
0.007104166666666667,0.6087614290087194
0.007125,0.7071067811865445
0.007145833333333333,0.7933533402912394
0.007166666666666667,0.8660254037844372
0.0071875,0.9238795325112873
0.007208333333333333,0.9659258262890661
0.007229166666666667,0.9914448613738108
0.00725,1.0
0.007270833333333333,0.9914448613738098
0.007291666666666667,0.9659258262890698
0.0073125,0.9238795325112845
0.007333333333333333,0.8660254037844407
0.007354166666666667,0.7933533402912394
0.007375,0.7071067811865445
0.007395833333333333,0.6087614290087251
0.007416666666666667,0.49999999999999495
0.0074375,0.3826834323650935
0.007458333333333333,0.2588190451025205
0.007479166666666667,0.13052619222006118
0.0075,-1.7157434800794711e-15
0.007520833333333333,-0.13052619222004347
0.007541666666666667,-0.25881904510252385
0.0075625,-0.3826834323650901
0.007583333333333333,-0.49999999999999784
0.007604166666666667,-0.6087614290087221
0.007625,-0.7071067811865468
0.0076458333333333335,-0.7933533402912372
0.007666666666666666,-0.8660254037844389
0.0076875,-0.9238795325112859
0.0077083333333333335,-0.9659258262890651
0.007729166666666666,-0.9914448613738103
0.00775,-1.0
0.007770833333333334,-0.9914448613738104
0.007791666666666666,-0.9659258262890689
0.0078125,-0.923879532511286
0.007833333333333333,-0.866025403784439
0.007854166666666667,-0.7933533402912374
0.007875,-0.707106781186547
0.007895833333333333,-0.6087614290087223
0.007916666666666667,-0.5000000000000043
0.0079375,-0.38268343236509034
0.007958333333333333,-0.25881904510252407
0.007979166666666667,-0.13052619222005074
0.008,-1.959434878635765e-15
0.008020833333333333,0.13052619222006093
0.008041666666666667,0.2588190451025203
0.0080625,0.38268343236508673
0.008083333333333333,0.49999999999999467
0.008104166666666668,0.6087614290087191
0.008125,0.7071067811865442
0.008145833333333333,0.7933533402912306
0.008166666666666666,0.866025403784437
0.0081875,0.9238795325112845
0.008208333333333333,0.9659258262890679
0.008229166666666666,0.9914448613738098
0.00825,1.0
0.008270833333333333,0.9914448613738108
0.008291666666666666,0.965925826289068
0.0083125,0.9238795325112901
0.008333333333333333,0.8660254037844373
0.008354166666666666,0.7933533402912396
0.008375,0.7071067811865446
0.008395833333333333,0.6087614290087252
0.008416666666666666,0.49999999999999517
0.0084375,0.3826834323650938
0.008458333333333333,0.2588190451025277
0.008479166666666666,0.13052619222004733
0.0085,5.6346132373510016e-15
0.008520833333333333,-0.1305261922200573
0.008541666666666666,-0.2588190451025167
0.0085625,-0.38268343236508984
0.008583333333333333,-0.4999999999999915
0.008604166666666666,-0.6087614290087219
0.008625,-0.7071067811865416
0.008645833333333333,-0.793353340291237
0.008666666666666666,-0.8660254037844388
0.0086875,-0.9238795325112857
0.008708333333333334,-0.9659258262890688
0.008729166666666666,-0.9914448613738103
0.00875,-1.0
0.008770833333333334,-0.9914448613738104
0.008791666666666666,-0.9659258262890689
0.0088125,-0.9238795325112915
0.008833333333333334,-0.8660254037844392
0.008854166666666666,-0.7933533402912418
0.008875,-0.7071067811865472
0.008895833333333334,-0.6087614290087225
0.008916666666666666,-0.49999999999999833
0.0089375,-0.38268343236509056
0.008958333333333334,-0.25881904510252435
0.008979166666666667,-0.13052619222005096
0.009,-2.204364238465236e-15
0.009020833333333334,0.13052619222004663
0.009041666666666667,0.25881904510252
0.0090625,0.38268343236508645
0.009083333333333334,0.5000000000000007
0.009104166666666667,0.608761429008719
0.009125,0.7071067811865541
0.009145833333333334,0.7933533402912348
0.009166666666666667,0.8660254037844369
0.0091875,0.9238795325112844
0.009208333333333334,0.9659258262890678
0.009229166666666667,0.9914448613738098
0.00925,1.0
0.009270833333333334,0.9914448613738108
0.009291666666666667,0.9659258262890699
0.0093125,0.9238795325112874
0.009333333333333334,0.8660254037844409
0.009354166666666667,0.7933533402912311
0.009375,0.7071067811865498
0.009395833333333334,0.6087614290087198
0.009416666666666667,0.5000000000000077
0.0094375,0.3826834323650874
0.009458333333333332,0.25881904510252784
0.009479166666666667,0.13052619222004758
0.0095,5.879542597180472e-15
0.009520833333333333,-0.13052619222004297
0.009541666666666667,-0.2588190451025165
0.0095625,-0.38268343236508306
0.009583333333333333,-0.5000000000000036
0.009604166666666667,-0.6087614290087161
0.009625,-0.7071067811865515
0.009645833333333333,-0.7933533402912325
0.009666666666666667,-0.8660254037844386
0.0096875,-0.923879532511283
0.009708333333333333,-0.9659258262890686
0.009729166666666667,-0.9914448613738093
0.00975,-1.0
0.009770833333333333,-0.9914448613738113
0.009791666666666667,-0.9659258262890671
0.0098125,-0.9238795325112862
0.009833333333333333,-0.8660254037844393
0.009854166666666667,-0.7933533402912334
0.009875,-0.7071067811865474
0.009895833333333333,-0.6087614290087227
0.009916666666666667,-0.5000000000000108
0.0099375,-0.3826834323650908
0.009958333333333333,-0.2588190451025314
0.009979166666666667,-0.1305261922200512
0.01,-9.554720955895708e-15
0.010020833333333333,0.13052619222005343
0.010041666666666667,0.2588190451025198
0.0100625,0.3826834323650863
0.010083333333333333,0.5000000000000004
0.010104166666666666,0.6087614290087188
0.010125,0.7071067811865439
0.010145833333333333,0.7933533402912346
0.010166666666666666,0.8660254037844368
0.0101875,0.9238795325112843
0.010208333333333333,0.9659258262890678
0.010229166666666666,0.9914448613738107
0.01025,1.0
0.010270833333333333,0.9914448613738108
0.010291666666666666,0.9659258262890681
0.0103125,0.9238795325112903
0.010333333333333333,0.8660254037844412
0.010354166666666666,0.7933533402912356
0.010375,0.707106781186555
0.010395833333333333,0.6087614290087255
0.010416666666666666,0.5000000000000017
0.0104375,0.3826834323651007
0.010458333333333333,0.25881904510251436
0.010479166666666666,0.13052619222005488
0.0105,-9.809554005910593e-16
0.010520833333333333,-0.13052619222004272
0.010541666666666666,-0.25881904510253
0.0105625,-0.38268343236508945
0.010583333333333333,-0.5000000000000034
0.010604166666666666,-0.6087614290087159
0.010625,-0.7071067811865464
0.010645833333333334,-0.7933533402912281
0.010666666666666666,-0.8660254037844349
0.0106875,-0.9238795325112856
0.010708333333333334,-0.965925826289065
0.010729166666666666,-0.9914448613738112
0.01075,-1.0
0.010770833333333334,-0.9914448613738104
0.010791666666666666,-0.9659258262890709
0.0108125,-0.9238795325112835
0.010833333333333334,-0.8660254037844394
0.010854166666666666,-0.7933533402912335
0.010875,-0.7071067811865526
0.010895833333333334,-0.6087614290087229
0.010916666666666667,-0.4999999999999987
0.0109375,-0.38268343236508445
0.010958333333333334,-0.2588190451025248
0.010979166666666667,-0.13052619222005146
0.011,4.411204399476825e-15
0.011020833333333334,0.13052619222004613
0.011041666666666667,0.2588190451025196
0.0110625,0.38268343236507946
0.011083333333333334,0.4999999999999941
0.011104166666666667,0.6087614290087073
0.011125,0.7071067811865488
