time,signal
0.0,2.079725826869335e-05
2.0833333333333333e-05,0.13054681152666475
4.1666666666666665e-05,0.2588391336554255
6.25e-05,0.3827026464435763
8.333333333333333e-05,0.5000180108458583
0.00010416666666666667,0.6087779284513845
0.000125,0.7071214869159783
0.00014583333333333335,0.7933660006883252
0.00016666666666666666,0.8660358022262837
0.0001875,0.9238874910776639
0.00020833333333333335,0.9659312088067001
0.00022916666666666666,0.991447575746328
0.00025,0.999999999783737
0.0002708333333333333,0.9914421465724672
0.0002916666666666667,0.9659204433536485
0.0003125,0.9238715735453079
0.0003333333333333333,0.8660150049680152
0.0003541666666666667,0.7933406795509991
0.000375,0.7070920751512747
0.0003958333333333333,0.6087449293027519
0.0004166666666666667,0.4999819889378787
0.0004375,0.3826642181210828
0.0004583333333333333,0.25879895643767026
0.00047916666666666664,0.1305055728569824
0.0005,-2.079725826857816e-05
0.0005208333333333333,-0.13054681152666495
0.0005416666666666666,-0.25883913365542555
0.0005625,-0.3827026464435762
0.0005833333333333334,-0.5000180108458581
0.0006041666666666667,-0.6087779284513845
0.000625,-0.707121486915978
0.0006458333333333333,-0.7933660006883252
0.0006666666666666666,-0.8660358022262835
0.0006875,-0.923887491077664
0.0007083333333333334,-0.9659312088067001
0.0007291666666666667,-0.991447575746328
0.00075,-0.999999999783737
0.0007708333333333333,-0.9914421465724672
0.0007916666666666666,-0.9659204433536486
0.0008125,-0.923871573545308
0.0008333333333333334,-0.8660150049680151
0.0008541666666666667,-0.7933406795509997
0.000875,-0.7070920751512748
0.0008958333333333333,-0.608744929302752
0.0009166666666666666,-0.4999819889378792
0.0009375,-0.3826642181210825
0.0009583333333333333,-0.25879895643767
0.0009791666666666666,-0.13050557285698253
0.001,2.0797258268455695e-05
0.0010208333333333332,0.13054681152666436
0.0010416666666666667,0.2588391336554259
0.0010625,0.3827026464435757
0.0010833333333333333,0.5000180108458583
0.0011041666666666667,0.6087779284513843
0.001125,0.7071214869159781
0.0011458333333333333,0.7933660006883251
0.0011666666666666668,0.8660358022262835
0.0011875,0.9238874910776635
0.0012083333333333334,0.9659312088067001
0.0012291666666666666,0.991447575746328
0.00125,0.999999999783737
0.0012708333333333332,0.9914421465724672
0.0012916666666666667,0.9659204433536488
0.0013125,0.923871573545308
0.0013333333333333333,0.866015004968016
0.0013541666666666667,0.7933406795509998
0.001375,0.7070920751512748
0.0013958333333333333,0.6087449293027528
0.0014166666666666668,0.49998198893787926
0.0014375,0.3826642181210843
0.0014583333333333334,0.258798956437671
0.0014791666666666666,0.13050557285698264
0.0015,-2.079725826744505e-05
0.0015208333333333332,-0.1305468115266625
0.0015416666666666667,-0.258839133655424
0.0015625,-0.38270264644357554
0.0015833333333333333,-0.5000180108458567
0.0016041666666666667,-0.6087779284513836
0.001625,-0.7071214869159769
0.0016458333333333333,-0.7933660006883244
0.0016666666666666668,-0.8660358022262834
0.0016875,-0.9238874910776632
0.0017083333333333334,-0.9659312088066995
0.0017291666666666666,-0.991447575746328
0.00175,-0.999999999783737
0.0017708333333333332,-0.9914421465724674
0.0017916666666666667,-0.9659204433536489
0.0018125,-0.9238715735453088
0.0018333333333333333,-0.866015004968016
0.0018541666666666667,-0.7933406795509987
0.001875,-0.7070920751512749
0.0018958333333333334,-0.6087449293027529
0.0019166666666666666,-0.4999819889378794
0.0019375,-0.38266421812108603
0.001958333333333333,-0.2587989564376711
0.001979166666666667,-0.13050557285698455
0.002,2.0797258267322585e-05
0.0020208333333333332,0.13054681152666237
0.0020416666666666665,0.2588391336554239
0.0020625,0.3827026464435771
0.0020833333333333333,0.5000180108458582
0.0021041666666666665,0.6087779284513849
0.002125,0.7071214869159768
0.0021458333333333334,0.7933660006883233
0.0021666666666666666,0.8660358022262833
0.0021875,0.9238874910776639
0.0022083333333333334,0.9659312088066998
0.0022291666666666666,0.991447575746328
0.00225,0.999999999783737
0.0022708333333333335,0.9914421465724672
0.0022916666666666667,0.9659204433536489
0.0023125,0.9238715735453088
0.0023333333333333335,0.8660150049680161
0.0023541666666666667,0.793340679551001
0.002375,0.7070920751512764
0.002395833333333333,0.6087449293027516
0.002416666666666667,0.4999819889378796
0.0024375,0.38266421812108287
0.002458333333333333,0.2587989564376712
0.002479166666666667,0.1305055728569864
0.0025,-2.0797258265423764e-05
0.0025208333333333333,-0.13054681152666403
0.0025416666666666665,-0.25883913365542377
0.0025625,-0.3827026464435737
0.0025833333333333333,-0.5000180108458564
0.0026041666666666665,-0.6087779284513833
0.002625,-0.707121486915978
0.0026458333333333334,-0.7933660006883254
0.0026666666666666666,-0.8660358022262824
0.0026875,-0.9238874910776631
0.0027083333333333334,-0.9659312088066998
0.0027291666666666666,-0.9914475757463279
0.00275,-0.999999999783737
0.0027708333333333335,-0.9914421465724675
0.0027916666666666667,-0.9659204433536489
0.0028125,-0.9238715735453082
0.0028333333333333335,-0.8660150049680153
0.0028541666666666667,-0.7933406795510011
0.002875,-0.7070920751512764
0.002895833333333333,-0.6087449293027531
0.002916666666666667,-0.49998198893787965
0.0029375,-0.38266421812108625
0.002958333333333333,-0.2587989564376696
0.002979166666666667,-0.13050557285698125
0.003,2.0797258267077657e-05
0.0030208333333333333,0.13054681152666392
0.0030416666666666665,0.25883913365542194
0.0030625,0.3827026464435736
0.0030833333333333333,0.5000180108458563
0.0031041666666666665,0.6087779284513832
0.003125,0.7071214869159779
0.0031458333333333334,0.7933660006883232
0.0031666666666666666,0.8660358022262824
0.0031875,0.9238874910776644
0.0032083333333333334,0.9659312088066998
0.0032291666666666666,0.9914475757463275
0.00325,0.999999999783737
0.0032708333333333335,0.9914421465724675
0.0032916666666666667,0.9659204433536489
0.0033125,0.9238715735453082
0.0033333333333333335,0.8660150049680153
0.0033541666666666668,0.793340679550999
0.003375,0.7070920751512765
0.003395833333333333,0.608744929302756
0.003416666666666667,0.4999819889378828
0.0034375,0.38266421812108636
0.0034583333333333332,0.2587989564376697
0.003479166666666667,0.1305055728569849
0.0035,-2.0797258266955193e-05
0.0035208333333333333,-0.13054681152666026
0.0035416666666666665,-0.2588391336554218
0.0035625,-0.3827026464435735
0.0035833333333333333,-0.5000180108458562
0.0036041666666666665,-0.6087779284513803
0.003625,-0.7071214869159752
0.0036458333333333334,-0.7933660006883231
0.0036666666666666666,-0.8660358022262823
0.0036875,-0.9238874910776643
0.0037083333333333334,-0.9659312088067007
0.0037291666666666667,-0.9914475757463279
0.00375,-0.999999999783737
0.0037708333333333335,-0.9914421465724671
0.0037916666666666667,-0.965920443353649
0.0038125,-0.9238715735453084
0.003833333333333333,-0.8660150049680153
0.0038541666666666668,-0.7933406795510034
0.003875,-0.707092075151279
0.003895833333333333,-0.6087449293027533
0.003916666666666666,-0.4999819889378799
0.0039375,-0.3826642181210832
0.003958333333333334,-0.2587989564376733
0.0039791666666666664,-0.13050557285698502
0.004,2.0797258266832726e-05
0.004020833333333334,0.13054681152666367
0.0040416666666666665,0.2588391336554217
0.0040625,0.3827026464435733
0.004083333333333333,0.5000180108458561
0.0041041666666666666,0.608777928451383
0.004125,0.7071214869159802
0.004145833333333333,0.7933660006883252
0.004166666666666667,0.866035802226284
0.0041875,0.9238874910776643
0.004208333333333333,0.9659312088067007
0.004229166666666667,0.9914475757463275
0.00425,0.999999999783737
0.004270833333333333,0.9914421465724675
0.004291666666666667,0.9659204433536499
0.0043125,0.9238715735453097
0.004333333333333333,0.8660150049680154
0.004354166666666667,0.7933406795509991
0.004375,0.7070920751512741
0.004395833333333333,0.6087449293027534
0.004416666666666667,0.49998198893787993
0.0044375,0.3826642181210833
0.004458333333333333,0.25879895643767
0.004479166666666667,0.13050557285698516
0.0045,-2.079725826671026e-05
0.004520833333333333,-0.13054681152666353
0.004541666666666667,-0.258839133655425
0.0045625,-0.3827026464435798
0.004583333333333333,-0.5000180108458561
0.004604166666666667,-0.608777928451383
0.004625,-0.7071214869159751
0.004645833333333333,-0.793366000688323
0.004666666666666667,-0.8660358022262822
0.0046875,-0.9238874910776629
0.0047083333333333335,-0.9659312088066988
0.004729166666666666,-0.9914475757463275
0.00475,-0.999999999783737
0.0047708333333333335,-0.9914421465724675
0.004791666666666666,-0.9659204433536481
0.0048125,-0.923871573545307
0.004833333333333334,-0.8660150049680155
0.004854166666666666,-0.7933406795509992
0.004875,-0.7070920751512743
0.004895833333333334,-0.6087449293027507
0.004916666666666666,-0.49998198893788004
0.0049375,-0.3826642181210834
0.004958333333333334,-0.2587989564376769
0.0049791666666666665,-0.13050557285698877
0.005,2.0797258263035084e-05
0.005020833333333334,0.13054681152666342
0.0050416666666666665,0.25883913365542494
0.0050625,0.3827026464435731
0.005083333333333333,0.500018010845856
0.005104166666666667,0.6087779284513857
0.005125,0.7071214869159774
0.005145833333333333,0.7933660006883272
0.005166666666666667,0.8660358022262838
0.0051875,0.9238874910776629
0.005208333333333333,0.9659312088067006
0.005229166666666667,0.9914475757463288
0.00525,0.999999999783737
0.005270833333333333,0.9914421465724662
0.005291666666666667,0.9659204433536472
0.0053125,0.9238715735453071
0.005333333333333333,0.8660150049680155
0.005354166666666667,0.7933406795510014
0.005375,0.7070920751512743
0.005395833333333333,0.6087449293027536
0.005416666666666667,0.49998198893787704
0.0054375,0.38266421812108353
0.005458333333333333,0.25879895643766676
0.005479166666666667,0.1305055728569819
0.0055,-2.079725827357076e-05
0.005520833333333333,-0.1305468115266668
0.005541666666666667,-0.2588391336554248
0.0055625,-0.3827026464435796
0.005583333333333333,-0.500018010845859
0.005604166666666667,-0.6087779284513885
0.005625,-0.7071214869159799
0.005645833333333333,-0.793366000688325
0.005666666666666667,-0.8660358022262855
0.0056875,-0.9238874910776642
0.0057083333333333335,-0.9659312088066996
0.005729166666666666,-0.9914475757463284
0.00575,-0.999999999783737
0.0057708333333333335,-0.9914421465724667
0.005791666666666666,-0.9659204433536481
0.0058125,-0.9238715735453085
0.005833333333333334,-0.8660150049680139
0.005854166666666666,-0.7933406795509994
0.005875,-0.7070920751512769
0.005895833333333334,-0.6087449293027508
0.005916666666666666,-0.4999819889378741
0.0059375,-0.3826642181210803
0.005958333333333334,-0.25879895643766343
0.0059791666666666665,-0.13050557285697847
0.006,2.0797258269895583e-05
0.006020833333333334,0.13054681152667022
0.0060416666666666665,0.2588391336554281
0.0060625,0.3827026464435762
0.006083333333333333,0.5000180108458557
0.006104166666666667,0.6087779284513799
0.006125,0.7071214869159773
0.006145833333333333,0.793366000688327
0.006166666666666667,0.8660358022262837
0.0061875,0.9238874910776655
0.006208333333333333,0.9659312088067005
0.006229166666666667,0.9914475757463278
0.00625,0.999999999783737
0.006270833333333333,0.9914421465724672
0.006291666666666667,0.9659204433536491
0.0063125,0.9238715735453071
0.006333333333333333,0.8660150049680158
0.006354166666666667,0.7933406795509973
0.006375,0.7070920751512695
0.006395833333333333,0.6087449293027482
0.006416666666666667,0.49998198893787726
0.0064375,0.38266421812108375
0.006458333333333333,0.25879895643767387
0.006479166666666667,0.1305055728569821
0.0065,-2.0797258266220402e-05
0.006520833333333333,-0.13054681152666658
0.006541666666666667,-0.25883913365542455
0.0065625,-0.3827026464435793
0.006583333333333333,-0.5000180108458587
0.006604166666666667,-0.6087779284513882
0.006625,-0.7071214869159798
0.0066458333333333335,-0.7933660006883247
0.006666666666666667,-0.8660358022262855
0.0066875,-0.9238874910776641
0.0067083333333333335,-0.9659312088067014
0.006729166666666666,-0.9914475757463282
0.00675,-0.999999999783737
0.0067708333333333336,-0.9914421465724667
0.006791666666666666,-0.9659204433536501
0.0068125,-0.9238715735453086
0.006833333333333334,-0.8660150049680175
0.006854166666666666,-0.7933406795509995
0.006875,-0.707092075151277
0.006895833333333334,-0.608744929302751
0.0069166666666666664,-0.49998198893787427
0.0069375,-0.3826642181210806
0.006958333333333334,-0.25879895643767054
0.0069791666666666665,-0.13050557285698575
0.007,2.0797258269650652e-05
0.007020833333333333,0.13054681152666292
0.0070416666666666666,0.258839133655421
0.0070625,0.38270264644357593
0.007083333333333333,0.5000180108458555
0.007104166666666667,0.6087779284513853
0.007125,0.7071214869159772
0.007145833333333333,0.7933660006883312
0.007166666666666667,0.8660358022262836
0.0071875,0.9238874910776654
0.007208333333333333,0.9659312088066986
0.007229166666666667,0.9914475757463287
0.00725,0.999999999783737
0.007270833333333333,0.9914421465724662
0.007291666666666667,0.9659204433536492
0.0073125,0.9238715735453046
0.007333333333333333,0.8660150049680158
0.007354166666666667,0.7933406795510017
0.007375,0.7070920751512697
0.007395833333333333,0.608744929302754
0.007416666666666667,0.4999819889378714
0.0074375,0.382664218121084
0.007458333333333333,0.2587989564376672
0.007479166666666667,0.13050557285698938
0.0075,-2.07972582730809e-05
0.007520833333333333,-0.13054681152665928
0.007541666666666667,-0.2588391336554312
0.0075625,-0.3827026464435791
0.007583333333333333,-0.5000180108458584
0.007604166666666667,-0.608777928451388
0.007625,-0.7071214869159796
0.0076458333333333335,-0.793366000688329
0.007666666666666666,-0.8660358022262853
0.0076875,-0.923887491077664
0.0077083333333333335,-0.9659312088066977
0.007729166666666666,-0.9914475757463282
0.00775,-0.999999999783737
0.007770833333333334,-0.9914421465724668
0.007791666666666666,-0.9659204433536484
0.0078125,-0.9238715735453059
0.007833333333333333,-0.8660150049680141
0.007854166666666667,-0.7933406795509996
0.007875,-0.7070920751512723
0.007895833333333333,-0.6087449293027513
0.007916666666666667,-0.4999819889378807
0.0079375,-0.3826642181210808
0.007958333333333333,-0.25879895643767076
0.007979166666666667,-0.13050557285697897
0.008,2.0797258269405724e-05
0.008020833333333333,0.13054681152667677
0.008041666666666667,0.25883913365542766
0.0080625,0.38270264644357577
0.008083333333333333,0.5000180108458553
0.008104166666666668,0.6087779284513851
0.008125,0.707121486915977
0.008145833333333333,0.7933660006883224
0.008166666666666666,0.8660358022262835
0.0081875,0.9238874910776627
0.008208333333333333,0.9659312088067004
0.008229166666666666,0.9914475757463278
0.00825,0.999999999783737
0.008270833333333333,0.9914421465724672
0.008291666666666666,0.9659204433536475
0.0083125,0.92387157354531
0.008333333333333333,0.8660150049680124
0.008354166666666666,0.7933406795510018
0.008375,0.7070920751512698
0.008395833333333333,0.6087449293027541
0.008416666666666666,0.4999819889378716
0.0084375,0.38266421812108425
0.008458333333333333,0.25879895643767437
0.008479166666666666,0.13050557285697556
0.0085,-2.0797258265730546e-05
0.008520833333333333,-0.13054681152667313
0.008541666666666666,-0.25883913365542405
0.0085625,-0.3827026464435789
0.008583333333333333,-0.5000180108458521
0.008604166666666666,-0.6087779284513878
0.008625,-0.7071214869159743
0.008645833333333333,-0.7933660006883289
0.008666666666666666,-0.8660358022262853
0.0086875,-0.9238874910776639
0.008708333333333334,-0.9659312088067012
0.008729166666666666,-0.9914475757463282
0.00875,-0.999999999783737
0.008770833333333334,-0.9914421465724668
0.008791666666666666,-0.9659204433536484
0.0088125,-0.9238715735453115
0.008833333333333334,-0.8660150049680142
0.008854166666666666,-0.7933406795510041
0.008875,-0.7070920751512724
0.008895833333333334,-0.6087449293027515
0.008916666666666666,-0.49998198893787477
0.0089375,-0.38266421812108103
0.008958333333333334,-0.25879895643767103
0.008979166666666667,-0.13050557285697917
0.009,2.0797258269160796e-05
0.009020833333333334,0.13054681152666245
0.009041666666666667,0.2588391336554274
0.0090625,0.3827026464435755
0.009083333333333334,0.5000180108458612
0.009104166666666667,0.6087779284513849
0.009125,0.7071214869159869
0.009145833333333334,0.7933660006883266
0.009166666666666667,0.8660358022262834
0.0091875,0.9238874910776624
0.009208333333333334,0.9659312088067004
0.009229166666666667,0.9914475757463278
0.00925,0.999999999783737
0.009270833333333334,0.9914421465724672
0.009291666666666667,0.9659204433536493
0.0093125,0.9238715735453075
0.009333333333333334,0.866015004968016
0.009354166666666667,0.7933406795509934
0.009375,0.707092075151275
0.009395833333333334,0.6087449293027487
0.009416666666666667,0.4999819889378841
0.0094375,0.38266421812107787
0.009458333333333332,0.2587989564376746
0.009479166666666667,0.13050557285697578
0.0095,-2.0797258265485615e-05
0.009520833333333333,-0.13054681152665878
0.009541666666666667,-0.2588391336554238
0.0095625,-0.3827026464435721
0.009583333333333333,-0.5000180108458642
0.009604166666666667,-0.608777928451382
0.009625,-0.7071214869159842
0.009645833333333333,-0.7933660006883243
0.009666666666666667,-0.8660358022262851
0.0096875,-0.9238874910776611
0.009708333333333333,-0.9659312088067012
0.009729166666666667,-0.9914475757463272
0.00975,-0.999999999783737
0.009770833333333333,-0.9914421465724678
0.009791666666666667,-0.9659204433536466
0.0098125,-0.9238715735453061
0.009833333333333333,-0.8660150049680144
0.009854166666666667,-0.7933406795509956
0.009875,-0.7070920751512726
0.009895833333333333,-0.6087449293027516
0.009916666666666667,-0.49998198893788726
0.0099375,-0.38266421812108126
0.009958333333333333,-0.2587989564376781
0.009979166666666667,-0.13050557285697942
0.01,2.0797258261810437e-05
0.010020833333333333,0.13054681152666925
0.010041666666666667,0.25883913365542716
0.0100625,0.38270264644357527
0.010083333333333333,0.5000180108458611
0.010104166666666666,0.6087779284513848
0.010125,0.7071214869159765
0.010145833333333333,0.7933660006883264
0.010166666666666666,0.8660358022262833
0.0101875,0.9238874910776624
0.010208333333333333,0.9659312088067002
0.010229166666666666,0.9914475757463287
0.01025,0.999999999783737
0.010270833333333333,0.9914421465724673
0.010291666666666666,0.9659204433536476
0.0103125,0.9238715735453102
0.010333333333333333,0.8660150049680162
0.010354166666666666,0.7933406795509979
0.010375,0.7070920751512801
0.010395833333333333,0.6087449293027546
0.010416666666666666,0.49998198893787815
0.0104375,0.3826642181210912
0.010458333333333333,0.25879895643766104
0.010479166666666666,0.13050557285698308
0.0105,-2.0797258272346114e-05
0.010520833333333333,-0.13054681152665853
0.010541666666666666,-0.25883913365543737
0.0105625,-0.38270264644357843
0.010583333333333333,-0.500018010845864
0.010604166666666666,-0.6087779284513818
0.010625,-0.707121486915979
0.010645833333333334,-0.7933660006883199
0.010666666666666666,-0.8660358022262814
0.0106875,-0.9238874910776638
0.010708333333333334,-0.9659312088066975
0.010729166666666666,-0.9914475757463291
0.01075,-0.999999999783737
0.010770833333333334,-0.9914421465724669
0.010791666666666666,-0.9659204433536503
0.0108125,-0.9238715735453035
0.010833333333333334,-0.8660150049680144
0.010854166666666666,-0.7933406795509957
0.010875,-0.7070920751512777
0.010895833333333334,-0.6087449293027518
0.010916666666666667,-0.49998198893787515
0.0109375,-0.38266421812107493
